frequency,real,imag
1000000.0,0.9962616846661793,-0.04981308423330897
1098196.392785571,0.9954943529754854,-0.05466241537380421
1196392.7855711423,0.9946563254342408,-0.0594999825936114
1294589.1783567134,0.9937479017368981,-0.06432476398016394
1392785.5711422847,0.9927694061176479,-0.06913574521560775
1490981.9639278557,0.991721187081835,-0.07393192015920694
1589178.3567134268,0.9906036171181313,-0.07871229142030843
1687374.7494989978,0.9894170923918915,-0.08347587092123973
1785571.142284569,0.9881620324201396,-0.08822168044953349
1883767.5350701404,0.9868388797286666,-0.09294875219889245
1981963.9278557114,0.9854480994917342,-0.09765612929832916
2080160.3206412825,0.9839901791549108,-0.10234286632893762
2178356.7134268535,0.9824656280415822,-0.10700802982777553
2276553.106212425,0.9808749769436975,-0.11165069877836077
2374749.4989979956,0.9792187776973423,-0.11626996508730968
2472945.891783567,0.9774976027437288,-0.12086493404666948
2571142.284569138,0.9757120446762294,-0.12543472478152326
2669338.6773547092,0.9738627157740792,-0.12997847068247229
2767535.0701402808,0.9719502475233975,-0.13449531982262644
2865731.4629258513,0.9699752901261861,-0.13898443535876212
2963927.855711423,0.9679385119979708,-0.14344499591633253
3062124.248496994,0.965840599254768,-0.1478761959580446
3160320.641282565,0.9636822551900623,-0.15227724613574434
3258517.034068136,0.9614641997424896,-0.15664737362537956
3356713.426853707,0.9591871689549212,-0.16098582244483894
3454909.8196392786,0.956851914425657,-0.16529185375449224
3553106.2124248496,0.9544592027524321,-0.16956474614028677
3651302.6052104207,0.95200981496994,-0.17380379587928163
3749498.9979959917,0.9495045459815855,-0.17800831718752974
3847695.390781563,0.9469442039861682,-0.18217764245024473
3945891.7835671343,0.9443296099001999,-0.18631112243421777
4044088.1763527053,0.94166159677656,-0.19040812648247474
4142284.5691382764,0.938941009220174,-0.19446804269119233
4240480.961923847,0.9361687028014114,-0.19849027806891645
4338677.3547094185,0.9333455434678765,-0.20247425867815153
4436873.74749499,0.9304724069552671,-0.206419429759415
4535070.1402805615,0.9275501781979626,-0.2103252558378747
4633266.533066132,0.9245797507399893,-0.21419122081271094
4731462.925851703,0.9215620261470071,-0.2180168280293671
4829659.318637274,0.9184979134199407,-0.22180160033487545
4927855.711422846,0.9153883284108688,-0.22554508011646557
5026052.104208417,0.9122341932417717,-0.22924682932368373
5124248.496993988,0.9090364357267201,-0.2329064294742709
5222444.889779559,0.9057959887980717,-0.23652348164406564
5320641.28256513,0.9025137899372274,-0.24009760644121625
5418837.675350701,0.8991907806104835,-0.24362844396500477
5517034.068136272,0.8958279057104908,-0.24711565374959732
5615230.460921844,0.8924261130038236,-0.25055891469305747
5713426.853707414,0.8889863525851347,-0.25395792497196573
5811623.246492986,0.885509576338356,-0.2573124019420072
5909819.639278557,0.8819967374053884,-0.26062208202489884
6008016.032064128,0.878448789662696,-0.2638867205820403
6106212.424849699,0.8748666872062099,-0.2671060917752827
6204408.81763527,0.8712513838449175,-0.27027998841521683
6302605.210420841,0.8676038326035008,-0.2734082217973958
6400801.603206413,0.8639249852343582,-0.27649062152690784
6498997.995991983,0.8602157917393302,-0.2795270353317282
6597194.388777555,0.8564771999014265,-0.28251732886528014
6695390.781563126,0.8527101548268318,-0.2854613854986418
6793587.174348697,0.8489155984974414,-0.2883591061028383
6891783.567134269,0.8450944693341713,-0.2912104088216648
6989979.959919839,0.8412477017712485,-0.2940152288354824
7088176.352705411,0.8373762258416833,-0.2967735181164362
7186372.745490981,0.8334809667740953,-0.29948524517554165
7284569.138276553,0.8295628446010516,-0.3021503948020864
7382765.531062124,0.8256227737790477,-0.3047689677957927
7480961.923847695,0.8216616628202569,-0.3073409806921863
7579158.316633266,0.8176804139361374,-0.3098664654816104
7677354.709418837,0.8136799226929851,-0.31234546932232715
7775551.1022044085,0.8096610776794876,-0.3147780542481375
7873747.49498998,0.8056247601863321,-0.31716429687095177
7971943.887775551,0.801571843897884,-0.3195042880787357
8070140.280561122,0.7975031945959606,-0.3217981327292519
8168336.673346693,0.7934196698756846,-0.32404594934000897
8266533.066132264,0.7893221188734004,-0.3262478697748273
8364729.458917836,0.7852113820066225,-0.3284040389274191
8462925.851703405,0.7810882907259574,-0.3305146144023765
8561122.244488977,0.7769536672789449,-0.3325797661939532
8659318.637274548,0.7728083244857324,-0.33459967636301097
8757515.03006012,0.768653065526501,-0.336574538712506
8855711.422845691,0.764488683740535,-0.33850455846186617
8953907.815631263,0.760315962436824,-0.3403899519206142
9052104.208416834,0.756135674716071,-0.3422309461615725
9150300.601202404,0.751948583303974,-0.34402777869398243
9248496.993987976,0.7477554403956308,-0.34578069713685733
9346693.386773545,0.7435569875109178,-0.34748995889287776
9444889.779559119,0.7393539553606742,-0.349155830823132
9543086.172344688,0.7351470637235237,-0.35077858892298786
9641282.56513026,0.7309370213331496,-0.352358517999377
9739478.957915831,0.7267245257758426,-0.35389591134975895
9837675.350701403,0.7225102633981197,-0.35539107044302304
9935871.743486974,0.7182949092242253,-0.3568443046025761
10034068.136272544,0.714079126883297,-0.3582559306918505
10132264.529058116,0.709863568545997,-0.35962627280246096
10230460.921843687,0.7056488748703876,-0.36095566194522327
10328657.314629259,0.7014356749568359,-0.3622444357442417
10426853.707414828,0.6972245863117214,-0.36349293813425715
10525050.1002004,0.6930162148197256,-0.3647015190614427
10623246.492985971,0.6888111547244726,-0.36587053418781856
10721442.885771543,0.6846099886172912,-0.3670003445994497
10819639.278557114,0.6804132874338659,-0.36809131651858135
10917835.671342684,0.6762216104585449,-0.36914382101985493
11016032.064128255,0.6720355053360689,-0.3701582337507386
11114228.456913827,0.667855508090487,-0.37113493465629666
11212424.849699399,0.6636821431510226,-0.372074307708414
11310621.24248497,0.6595159233846576,-0.37297674063957986
11408817.63527054,0.6553573501351957,-0.37384262468132956
11507014.028056111,0.6512069132685754,-0.3746723543074308
11605210.420841683,0.6470650912241961,-0.37546632698189575
11703406.813627254,0.6429323510720288,-0.3762249429118887
11801603.206412826,0.6388091485752796,-0.37694860480559333
11899799.599198395,0.634695928258379,-0.37763771763509557
11997995.991983967,0.6305931234800716,-0.37829268840432745
12096192.384769538,0.6265011565113837,-0.3789139259221154
12194388.77755511,0.6224204386182435,-0.37950184058036185
12292585.170340681,0.6183513701485445,-0.3800568441373919
12390781.563126251,0.6142943406234276,-0.38057934950647826
12488977.955911823,0.6102497288325781,-0.3810697705495618
12587174.348697394,0.6062179029333258,-0.38152852187617414
12685370.741482966,0.6021992205533411,-0.38195601864756007
12783567.134268537,0.5981940288967331,-0.382352676385998
12881763.527054107,0.5942026648533437,-0.382718910789308
12979959.919839678,0.59022545511105,-0.38305513755052806
13078156.31262525,0.5862627162708836,-0.38336177218274414
13176352.705410821,0.5823147549647815,-0.38363922984904186
13274549.098196393,0.5783818679757862,-0.3838879251975559
13372745.490981963,0.5744643423605198,-0.384108272201578
13470941.883767534,0.5705624555737573,-0.3843006840046889
13569138.276553106,0.566676475594932,-0.38446557277087007
13667334.669338677,0.5628066610564078,-0.3846033495395492
13765531.062124249,0.5589532613733598,-0.3847144240855318
13863727.454909818,0.5551165168751052,-0.3847992047837653
13961923.84769539,0.5512966589377385,-0.38485809847888014
14060120.240480961,0.5474939101179173,-0.3848915103594496
14158316.633266533,0.5437084842876643,-0.3848998438369086
14256513.026052104,0.5399405867700421,-0.384883500429066
14354709.418837674,0.5361904144755707,-0.38484287964814745
14452905.811623245,0.5324581560392565,-0.38477837889329825
14551102.204408817,0.5287439919581107,-0.3846903933474792
14649298.597194389,0.5250480947290362,-0.38457931587868294
14747494.98997996,0.5213706289869655,-0.3844455369453987
14845691.38276553,0.5177117516431391,-0.38428944450624997
14943887.775551101,0.5140716120234188,-0.38411142393373093
15042084.168336673,0.5104503520065301,-0.38391185793196536
15140280.561122244,0.5068481061621347,-0.3836911264584096
15238476.953907816,0.5032650018886395,-0.38344960664942046
15336673.346693385,0.4997011595506512,-0.3831876727496126
15434869.739478957,0.4961566926159854,-0.3829056960449217
15533066.132264528,0.49263170779215343,-0.38260404479929666
15631262.5250501,0.48912630516224065,-0.3822830841949376
15729458.917835671,0.4856405783201057,-0.381943176276003
15827655.310621241,0.48217461450482435,-0.3815846798957017
15925851.703406813,0.47872849473431206,-0.38120795066669116
16024048.096192384,0.4753022939380596,-0.38081334091470187
16122244.488977956,0.4718960810889182,-0.3804011996353053
16220440.881763527,0.46850991933387814,-0.3799718724537485
16318637.274549097,0.46514386612378444,-0.3795257015877732
16416833.667334668,0.46179797334193695,-0.3790630258133414
16515030.06012024,0.4584722874315277,-0.3785841804331883
16613226.452905811,0.4551668495218679,-0.37808949724812474
16711422.845691383,0.45188169555336244,-0.37757930453101096
16809619.238476954,0.44861685640119114,-0.3770539270033258
16907815.631262526,0.4453723579976601,-0.37651368581425443
17006012.024048097,0.44214822145318783,-0.37595889852221964
17104208.41683367,0.438944463175894,-0.37538987907878313
17202404.809619237,0.43576109498976123,-0.37480693781484065
17300601.20240481,0.43259812425134275,-0.3742103814290423
17398797.59519038,0.4294555539649922,-0.37360051297836294
17496993.98797595,0.4263333828965896,-0.3729776318707539
17595190.380761523,0.423231605685748,-0.3723420338598063
17693386.77354709,0.42015021295647775,-0.37169401104135685
17791583.166332666,0.4170891914262956,-0.37103385185196913
17889779.559118237,0.41404852401376313,-0.3703618410692248
17987975.951903805,0.4110281899444419,-0.3696782598137585
18086172.344689377,0.40802816485525395,-0.3689833855529726
18184368.73747495,0.4050484208972426,-0.36827749210637056
18282565.13026052,0.4020889268367207,-0.3675608496524452
18380761.52304609,0.39914964815480675,-0.3668337247370628
18478957.915831663,0.39623054714533995,-0.36609638028328456
18577154.308617234,0.39333158301117493,-0.3653490756025643
18675350.701402806,0.39045271195885445,-0.364592066407271
18773547.094188377,0.3875938872916589,-0.363825604824475
18871743.48697395,0.38475505950103583,-0.3630499394109473
18969939.879759517,0.38193617635641247,-0.36226531516931854
19068136.272545088,0.3791371829933927,-0.3614719735653438
19166332.66533066,0.37635802200034796,-0.3606701525462252
19264529.05811623,0.3735986335034031,-0.35986008655994123
19362725.450901803,0.3708589552498287,-0.35904200657553553
19460921.843687374,0.36813892268984566,-0.35821614010431774
19559118.236472946,0.3654384690568511,-0.35738271122193055
19657314.629258517,0.3627575254460771,-0.35654194059123945
19755511.02204409,0.36009602089169035,-0.35569404548600037
19853707.414829656,0.3574538824423471,-0.35483923981526366
19951903.807615228,0.3548310352352123,-0.35397773414847433
20050100.2004008,0.3522274025684596,-0.3531097357412263
20148296.59318637,0.3496429059722606,-0.352235448561634
20246492.985971943,0.3470774652782831,-0.35135507331728394
20344689.378757514,0.34453099868770787,-0.35046880748272646
20442885.771543086,0.342003422837782,-0.34957684532747635
20541082.164328657,0.33949465286692365,-0.34867937794448567
20639278.55711423,0.33700460247839265,-0.34777659327905464
20737474.9498998,0.33453318400254595,-0.34686867615815087
20835671.342685368,0.332080308457693,-0.34595580832010353
20933867.73547094,0.32964588560956665,-0.3450381684446426
21032064.12825651,0.32722982402943157,-0.344115932183255
21130260.521042082,0.3248320311508413,-0.3431892721898267
21228456.913827654,0.3224524133250678,-0.3422583581515474
21326653.306613225,0.32009087587521806,-0.34132335682004716
21424849.699398797,0.31774732314905657,-0.3403844320427419
21523046.09218437,0.3154216585705531,-0.3394417447943628
21621242.48496994,0.31311378469017337,-0.3384954532086453
21719438.87775551,0.31082360323393127,-0.3375457126101549
21817635.27054108,0.3085510151512223,-0.3365926755462281
21915831.66332665,0.30629592066145617,-0.33563649181900646
22014028.056112222,0.30405821929950755,-0.33467730851754407
22112224.448897794,0.3018378099600046,-0.333715270049969
22210420.841683365,0.2996345909404734,-0.33275051817567797
22308617.234468937,0.2974484599833571,-0.3317831920375482
22406813.62725451,0.2952793143169308,-0.3308134281941486
22505010.02004008,0.2931270506951276,-0.3298413606519322
22603206.41282565,0.2909915654362977,-0.328867120897395
22701402.805611223,0.2888727544609178,-0.3278908379291861
22799599.19839679,0.28677051332827036,-0.32691263829015343
22897795.591182362,0.2846847372721099,-0.32593264609931144
22995991.983967934,0.28261532123533795,-0.32495098308371767
23094188.376753505,0.28056215990370065,-0.32396776861024507
23192384.769539077,0.27852514773853165,-0.32298311971723714
23290581.16232465,0.27650417900855595,-0.3219971511460358
23388777.55511022,0.2744991478207735,-0.3210099753723695
23486973.94789579,0.27250994815044,-0.32002170263759083
23585170.340681363,0.2705364738701643,-0.31903244097975586
23683366.733466934,0.26857861877813727,-0.31804229626453173
23781563.126252502,0.2666362766255125,-0.31705137221592744
23879759.519038074,0.2647093411429535,-0.3160597704468371
23977955.911823645,0.2627977060663672,-0.31506759048938715
24076152.304609217,0.26090126516183754,-0.31407492982508173
24174348.69739479,0.2590199122497788,-0.3130818839147376
24272545.09018036,0.25715354122832307,-0.31208854622820126
24370741.48296593,0.25530204609595963,-0.31109500827384423
24468937.875751503,0.2534653209734417,-0.310101359627828
24567134.268537074,0.2516432601249758,-0.30910768796313415
24665330.661322646,0.24983575797871144,-0.3081140790783548
24763527.054108214,0.24804270914654408,-0.307120616926237
24861723.446893785,0.24626400844324892,-0.3061273836419786
24959919.839679357,0.24449955090495956,-0.3051344595712696
25058116.23246493,0.24274923180700558,-0.30414192329807593
25156312.6252505,0.24101294668112583,-0.3031498516721616
25254509.01803607,0.23929059133206962,-0.30215831983634683
25352705.410821643,0.23758206185360162,-0.3011674012534984
25450901.803607214,0.23588725464392307,-0.3001771677332488
25549098.196392786,0.23420606642052502,-0.29918768945844426
25647294.589178357,0.23253839423448452,-0.29819903501131584
25745490.981963925,0.23088413548421943,-0.29721127139937537
25843687.374749497,0.22924318792871384,-0.2962244640810314
25941883.767535068,0.2276154497002271,-0.29523867699092576
26040080.16032064,0.2260008193164988,-0.29425397256498853
26138276.55310621,0.2243991956924631,-0.29327041176521
26236472.945891783,0.22281047815148367,-0.29228805410413067
26334669.338677354,0.2212345664361217,-0.29130695766904563
26432865.731462926,0.21967136071844853,-0.2903271791459255
26531062.124248497,0.21812076160991484,-0.2893487738430524
26629258.517034065,0.21658267017078733,-0.288371795714371
26727454.909819636,0.21505698791916417,-0.28739629738255434
26825651.302605208,0.2135436168395805,-0.286422330161786
26923847.69539078,0.21204245939121424,-0.2854499440802568
27022044.08817635,0.2105534185157027,-0.2844791879023782
27120240.480961923,0.20907639764458075,-0.28351010915071256
27218436.873747494,0.2076113007063507,-0.28254275412762075
27316633.266533066,0.2061580321331925,-0.2815771679366279
27414829.659318637,0.2047164968673263,-0.2806133945035095
27513026.05210421,0.20328660036703466,-0.27965147659709605
27611222.444889776,0.2018682486123547,-0.27869145584980193
27709418.837675348,0.20046134811044986,-0.2777333727778748
27807615.23046092,0.1990658059006688,-0.27677726680137077
27905811.62324649,0.19768152955930168,-0.2758231762638553
28004008.016032062,0.1963084272040414,-0.27487113845183114
28102204.408817634,0.1949464074981583,-0.27392118961389517
28200400.801603206,0.19359537965439697,-0.27297336497962665
28298597.194388777,0.19225525343860306,-0.27202769877820776
28396793.58717435,0.1909259391730873,-0.27108422425677825
28494989.97995992,0.18960734773973562,-0.27014297369852713
28593186.372745488,0.18829939058287157,-0.2692039784405222
28691382.76553106,0.1870019797118792,-0.26826726889128
28789579.15831663,0.18571502770359366,-0.26733287454807875
28887775.551102202,0.18443844770446585,-0.26640082401401555
28985971.943887774,0.1831721534325087,-0.26547114501481023
29084168.336673345,0.18191605917903114,-0.26454386441535854
29182364.729458917,0.18067007981016678,-0.26361900823603696
29280561.12224449,0.1794341307682037,-0.26269660166875997
29378757.51503006,0.17820812807272135,-0.2617766690927951
29476953.90781563,0.17699198832154048,-0.26085923409033457
29575150.3006012,0.17578562869149253,-0.25994431946182833
29673346.69338677,0.17458896693901432,-0.2590319472410807
29771543.086172342,0.17340192140057295,-0.2581221387101113
29869739.478957914,0.17222441099292737,-0.25721491441378586
29967935.871743485,0.17105635521323181,-0.25631029417421525
30066132.264529057,0.1698976741389852,-0.25540829710492935
30164328.65731463,0.16874828842783407,-0.25450894162482546
30262525.0501002,0.16760811931723138,-0.25361224547189487
30360721.44288577,0.16647708862395805,-0.25271822571672986
30458917.835671343,0.16535511874351083,-0.25182689877581377
30557114.22845691,0.16424213264936238,-0.25093828042459687
30655310.621242482,0.16313805389209565,-0.25005238581035943
30753507.014028054,0.16204280659842113,-0.2491692294648668
30851703.406813625,0.16095631547007636,-0.24828882531681618
30949899.799599197,0.15987850578261575,-0.24741118670407994
31048096.19238477,0.1588093033840932,-0.2465363263857471
31146292.58517034,0.15774863469364117,-0.24566425655396504
31244488.97795591,0.15669642669995115,-0.24479498884558504
31342685.370741483,0.1556526069596586,-0.24392853435361328
31440881.763527054,0.1546171035956359,-0.24306490363847005
31539078.156312622,0.1535898452951976,-0.24220410673906007
31637274.549098194,0.15257076130822098,-0.24134615318365574
31735470.941883765,0.15155978144518503,-0.24049105200059612
31833667.334669337,0.15055683607513198,-0.23963881172880475
31931863.72745491,0.14956185612355397,-0.23878944042812714
32030060.12024048,0.1485747730702079,-0.23794294568949217
32128256.51302605,0.14759551894686182,-0.2370993346448986
32226452.905811623,0.14662402633497634,-0.23625861397722994
32324649.298597194,0.14566022836332249,-0.23542078992989893
32422845.691382766,0.14470405870553987,-0.23458586831632572
32521042.084168334,0.1437554515776385,-0.2337538545292502
32619238.476953905,0.1428143417354445,-0.23292475354988273
32717434.869739477,0.1418806644719954,-0.2320985699568935
32815631.262525048,0.14095435561488528,-0.23127530793524512
32913827.65531062,0.14003535152356236,-0.23045497128486858
33012024.04809619,0.1391235890865832,-0.22963756342918681
33110220.440881763,0.13821900571882303,-0.22882308742348637
33208416.833667334,0.137321539358647,-0.22801154596314024
33306613.226452906,0.13643112846504313,-0.22720294139168498
33404809.619238473,0.13554771201471874,-0.2263972757087521
33503006.012024045,0.13467122949916388,-0.2255945505778578
33601202.40480962,0.13380162092168235,-0.22479476733405288
33699398.79759519,0.13293882679439276,-0.22399792699143367
33797595.19038076,0.13208278813520133,-0.22320403025051813
33895791.58316633,0.131233446464749,-0.2224130775054874
33993987.9759519,0.13039074380333254,-0.22162506885129554
34092184.368737474,0.1295546226678045,-0.22084000409065024
34190380.761523046,0.12872502606845054,-0.22005788274086524
34288577.15430862,0.12790189750584782,-0.21927870404058689
34386773.54709418,0.1270851809677049,-0.21850246695639758
34484969.93987976,0.1262748209256848,-0.2177291701892969
